"Time (s)","Acceleration x (m/s^2)","Acceleration y (m/s^2)","Acceleration z (m/s^2)","Absolute acceleration (m/s^2)"
1.777083336E-3,1.490705063E1,3.799099731E0,8.646619263E0,1.764702077E1
1.174908334E-2,1.336061646E1,2.866988068E0,6.732699280E0,1.523334934E1
2.172208334E-2,1.154025192E1,2.767295380E0,5.293891296E0,1.299463825E1
3.169508334E-2,9.800569611E0,2.071242828E0,3.876339111E0,1.074091320E1
4.166708334E-2,8.097561035E0,1.218017120E0,2.304757233E0,8.506818813E0
5.164008334E-2,6.022725677E0,9.262738037E-1,1.210532684E0,6.212615965E0
6.161208334E-2,3.749253387E0,1.151555328E0,6.792874146E-1,3.980503992E0
7.158508334E-2,1.592687988E0,1.600920868E0,3.659889221E-1,2.287695466E0
8.155808334E-2,-2.213896179E-1,2.125430145E0,1.812730408E-1,2.144604062E0
9.153008334E-2,-1.472487946E0,2.667303314E0,2.171983337E-1,3.054488965E0
1.015030833E-1,-2.280807037E0,2.969674530E0,2.938389587E-1,3.755980417E0
1.114750833E-1,-2.854563904E0,3.057092743E0,2.817141724E-1,4.192101382E0
1.214480833E-1,-3.186573486E0,3.072510681E0,3.959266663E-1,4.444246887E0
1.314210833E-1,-3.407364349E0,3.220552826E0,5.951623535E-1,4.726130610E0
1.413930833E-1,-3.590134277E0,3.390748901E0,9.011260986E-1,5.019787893E0
1.513660833E-1,-3.596870270E0,3.572471008E0,1.195414124E0,5.208554480E0
1.613380833E-1,-3.485352173E0,3.673660583E0,1.582958221E0,5.305583717E0
1.713110833E-1,-3.168161774E0,3.614234161E0,1.725611572E0,5.106630288E0
1.812840833E-1,-2.728825378E0,3.444337463E0,1.714983673E0,4.717109020E0
1.912560833E-1,-2.232008514E0,3.298241272E0,1.779798889E0,4.362102885E0
2.012290833E-1,-1.674118652E0,3.353626099E0,2.042203217E0,4.268498009E0
2.112010833E-1,-1.010398865E0,3.454665985E0,2.418520660E0,4.336457669E0
2.211740833E-1,-2.329156494E-1,3.363804932E0,2.858605499E0,4.420526973E0
2.311470833E-1,7.735913086E-1,3.182382202E0,3.350632324E0,4.685374795E0
2.411190833E-1,1.803749084E0,3.220852203E0,3.851041718E0,5.334596703E0
2.510920833E-1,3.059487762E0,3.421584778E0,4.403991852E0,6.361041738E0
2.610640833E-1,4.647086334E0,3.906875610E0,5.027295685E0,7.882435559E0
2.710370833E-1,6.666686554E0,5.044060822E0,5.994135132E0,1.028673491E1
2.810100833E-1,9.127718811E0,6.915020142E0,7.517068176E0,1.369814105E1
2.909820833E-1,1.208616669E1,9.178163910E0,9.146729279E0,1.771938979E1
3.009550833E-1,1.531285675E1,1.161090500E1,1.105316483E1,2.216910349E1
3.109270833E-1,1.914084641E1,1.320508987E1,1.348979782E1,2.688347159E1
3.209000833E-1,2.411724792E1,1.335358109E1,1.618404510E1,3.196690619E1
3.308730833E-1,2.935051529E1,1.276695099E1,1.838446930E1,3.691119744E1
3.408450833E-1,3.321038864E1,1.216295700E1,1.826082642E1,3.980358298E1
3.508180833E-1,3.543102081E1,1.100032471E1,1.650422928E1,4.060485148E1
3.607910833E-1,3.576228195E1,9.444909210E0,1.378453491E1,3.947354206E1
3.707630833E-1,3.408741486E1,7.668553162E0,1.054392380E1,3.649565574E1
3.807360833E-1,3.059412918E1,5.283562775E0,7.615563354E0,3.196738308E1
3.907080833E-1,2.550306610E1,2.788551178E0,4.807552643E0,2.610162755E1
4.006810833E-1,2.018477554E1,6.593788147E-1,2.472558289E0,2.034633846E1
4.106540833E-1,1.598076782E1,-1.090482330E0,9.975256348E-1,1.604896100E1
4.206260833E-1,1.284493881E1,-2.263892212E0,2.938389587E-1,1.304622560E1
4.305990833E-1,1.014410522E1,-2.935395813E0,8.502319336E-2,1.056061780E1
4.405710833E-1,8.173153839E0,-3.559747467E0,3.637435913E-1,8.922138483E0
4.505440833E-1,6.590045929E0,-4.253854065E0,5.706134033E-1,7.864450356E0
4.605170833E-1,5.010530548E0,-4.821174316E0,5.068460083E-1,6.971802567E0
4.704890833E-1,3.737278290E0,-5.166057129E0,3.929328918E-1,6.388254185E0
4.804620833E-1,2.903961182E0,-5.592969360E0,2.119592285E-1,6.305491537E0
4.904340833E-1,2.288740540E0,-6.233337708E0,-1.701960754E-1,6.642424176E0
5.004070833E-1,1.561852112E0,-6.866670685E0,-5.504054260E-1,7.063532717E0
5.103800833E-1,5.947132874E-1,-7.202871552E0,-1.139430542E0,7.316648443E0
5.203520833E-1,-5.346881104E-1,-7.157665558E0,-1.848056946E0,7.411705748E0
5.303250833E-1,-1.434616699E0,-6.782845001E0,-2.283052368E0,7.299139641E0
5.402970833E-1,-1.885329437E0,-6.406826935E0,-2.618953857E0,7.173619572E0
5.502700833E-1,-1.761985931E0,-6.125861206E0,-3.098556519E0,7.087441177E0
5.602430833E-1,-1.598376160E0,-6.051615601E0,-3.271746368E0,7.062661115E0
5.702150833E-1,-1.364712067E0,-6.159990234E0,-3.100652161E0,7.030075571E0
5.801880833E-1,-9.154962158E-1,-5.990243225E0,-3.127596130E0,6.819311165E0
5.901600833E-1,-3.685336304E-1,-5.470074921E0,-3.340902557E0,6.420215462E0
6.001330833E-1,5.508544922E-2,-4.904401245E0,-3.879781952E0,6.253710417E0
6.101060833E-1,1.007405090E-1,-4.699327698E0,-4.688250732E0,6.638789377E0
6.200780833E-1,-2.305206299E-2,-4.750221863E0,-5.291047211E0,7.110578017E0
6.300510833E-1,-6.556365967E-2,-4.431235199E0,-5.632187805E0,7.166706598E0
6.400240833E-1,-1.495390320E-1,-3.692820740E0,-5.742957458E0,6.829410466E0
6.499960833E-1,-5.658233643E-2,-3.169209595E0,-5.830225983E0,6.636160488E0
6.599690833E-1,1.508862305E-1,-3.364403687E0,-6.469247131E0,7.293362549E0
6.699410833E-1,3.691323853E-1,-3.836222534E0,-6.900949402E0,7.904173878E0
6.799140833E-1,8.848100281E-1,-4.032015381E0,-7.113956451E0,8.224865544E0
6.898870833E-1,1.491199036E0,-4.039350128E0,-7.253765717E0,8.435469228E0
6.998590833E-1,2.840044098E0,-4.085304565E0,-6.856791229E0,8.471785516E0
7.098320833E-1,5.777086487E0,-4.051474915E0,-6.032305756E0,9.283204726E0
7.198040833E-1,1.049243088E1,-3.146606598E0,-5.150788879E0,1.210466294E1
7.297770833E-1,1.691856766E1,-1.085093536E0,-4.556824036E0,1.755505639E1
7.397500833E-1,2.431378922E1,1.293460236E0,-4.224664764E0,2.471196426E1
7.497220833E-1,3.283631653E1,2.506687317E0,-4.245770874E0,3.320442342E1
7.596950833E-1,4.029740112E1,3.029250641E0,-6.121669922E0,4.087213891E1
7.696680833E-1,4.409620148E1,3.971541138E0,-9.244176636E0,4.522944755E1
7.796400833E-1,4.411880447E1,4.478536835E0,-1.169697601E1,4.586224426E1
7.896130833E-1,4.091007706E1,4.333488464E0,-1.254346573E1,4.300874399E1
7.995850833E-1,3.537623474E1,4.539011078E0,-1.180879349E1,3.757031022E1
8.095580833E-1,2.929288513E1,4.881947937E0,-1.042701691E1,3.147426276E1
8.195310833E-1,2.469145386E1,4.450694733E0,-9.797725525E0,2.693458748E1
8.295030833E-1,2.024465103E1,3.857777710E0,-9.341174927E0,2.262710528E1
8.394762083E-1,1.656844574E1,3.895948334E0,-8.001311188E0,1.880725361E1
8.494492083E-1,1.355057144E1,3.930676117E0,-6.371799774E0,1.548121550E1
8.594212083E-1,1.115300720E1,3.807182922E0,-4.847070465E0,1.274277456E1
8.693942083E-1,9.404193878E0,3.445984039E0,-3.589984589E0,1.063962677E1
8.793662083E-1,7.754324799E0,3.028352509E0,-2.496807861E0,8.691059860E0
8.893392083E-1,6.204298096E0,2.749931488E0,-1.581161957E0,6.968178470E0
8.993122083E-1,4.939877472E0,2.680026855E0,-9.422904968E-1,5.698494956E0
9.092842083E-1,3.911515961E0,2.573897552E0,-7.394622803E-1,4.740433544E0
9.192572083E-1,2.984942780E0,2.304607544E0,-9.196875000E-1,3.881613637E0
9.292292083E-1,2.059866486E0,1.972298584E0,-1.273401947E0,3.123229764E0
9.392022083E-1,8.002359009E-1,1.854942627E0,-1.488804016E0,2.509527255E0
9.491752083E-1,-4.766088867E-1,2.154320068E0,-1.469494171E0,2.650974181E0
9.591472083E-1,-1.575623474E0,2.763253784E0,-1.386117554E0,3.469795769E0
9.691202083E-1,-2.364033966E0,3.317700806E0,-1.246907043E0,4.260348859E0
9.790932083E-1,-2.744991760E0,3.572770386E0,-1.201850739E0,4.663058352E0
9.890652083E-1,-3.014581146E0,3.642525330E0,-1.325942688E0,4.910581867E0
9.990382083E-1,-3.132236481E0,3.740870819E0,-1.338516541E0,5.059312837E0
1.009010208E0,-2.965932312E0,3.843407593E0,-1.366358643E0,5.043359232E0
1.018983208E0,-2.636467438E0,3.765868835E0,-1.326691132E0,4.784646068E0
1.028956208E0,-2.301015015E0,3.576063538E0,-1.223256226E0,4.424845344E0
1.038928208E0,-2.024390259E0,3.407963104E0,-9.505233765E-1,4.076256019E0
1.048901208E0,-1.717528381E0,3.313509521E0,-4.852908325E-1,3.763609475E0
1.058873208E0,-1.505569153E0,3.404370575E0,8.846603394E-2,3.723480056E0
1.068846208E0,-1.187480621E0,3.641926575E0,7.149133301E-1,3.896773084E0
1.078819208E0,-4.647834778E-1,3.848646698E0,1.289568329E0,4.085473236E0
1.088791208E0,4.864883423E-1,3.984114990E0,1.774859161E0,4.388618029E0
1.098764208E0,1.656455383E0,4.201912079E0,2.115251312E0,4.987403901E0
1.108736208E0,2.898273010E0,4.910688171E0,2.211201782E0,6.115902066E0
1.118709208E0,4.352648621E0,5.973178711E0,2.716101837E0,7.874110941E0
1.128682208E0,6.629414062E0,7.277566223E0,3.390599213E0,1.041192893E1
1.138654208E0,9.992171173E0,8.889564056E0,3.844305725E0,1.391569331E1
1.148627208E0,1.559606781E1,1.022224274E1,3.990252228E0,1.906970609E1
1.158600208E0,2.356070526E1,1.091694809E1,3.859124908E0,2.625222720E1
1.168572208E0,3.194327362E1,1.168455185E1,3.892505493E0,3.423526078E1
1.178545208E0,3.961990997E1,1.125359802E1,4.334536285E0,4.141459815E1
1.188517208E0,4.563350464E1,8.483757935E0,4.354145508E0,4.661919645E1
1.198490208E0,4.883429855E1,4.894970856E0,3.016826477E0,4.917164525E1
1.208463208E0,4.765564957E1,3.029849396E0,1.381327515E0,4.777184305E1
1.218435208E0,4.323429382E1,2.398911438E0,2.450404358E0,4.337007517E1
1.228408208E0,3.703852798E1,1.454525299E0,4.381688232E0,3.732515761E1
1.238381208E0,3.037752960E1,-4.402345276E-1,4.651277618E0,3.073471156E1
1.248353208E0,2.426918198E1,-3.006797333E0,3.940256195E0,2.477013611E1
1.258326208E0,1.910566956E1,-5.179678802E0,3.565136261E0,2.011382306E1
1.268298208E0,1.467488342E1,-6.098019104E0,3.718567200E0,1.632071636E1
1.278271208E0,1.074510544E1,-5.797294464E0,3.757935333E0,1.277450555E1
1.288244208E0,8.070916443E0,-5.465733948E0,3.779939575E0,1.045475409E1
1.298216208E0,6.380930786E0,-5.568719788E0,3.403322754E0,9.127405082E0
1.308189208E0,5.078788605E0,-5.848188629E0,2.530936890E0,8.148683665E0
1.318162208E0,4.021088104E0,-6.063740387E0,1.481319580E0,7.425119846E0
1.328134208E0,3.274440765E0,-6.132447510E0,4.872367859E-1,6.968950744E0
1.338107208E0,2.699486389E0,-6.339167633E0,-4.215234375E-1,6.902894687E0
1.348079208E0,2.052831116E0,-6.512956238E0,-1.135239258E0,6.922534414E0
1.358052208E0,1.678010559E0,-6.574478302E0,-1.753453674E0,7.008144131E0
1.368025208E0,1.342258759E0,-6.214626617E0,-2.115401001E0,6.700609223E0
1.377997208E0,8.497828674E-1,-5.601052551E0,-2.292482758E0,6.111415368E0
1.387970208E0,4.388873291E-1,-5.151986389E0,-2.268532562E0,5.646399368E0
1.397942208E0,2.317181396E-1,-4.791535950E0,-2.170187073E0,5.265189644E0
1.407915208E0,2.466870117E-1,-4.430636444E0,-2.354753265E0,5.023570117E0
1.417888208E0,4.893324280E-1,-4.163442078E0,-2.653831329E0,4.961503490E0
1.427860208E0,8.367599487E-1,-4.023932190E0,-2.724783783E0,4.931190946E0
1.437833208E0,9.728269958E-1,-3.883673859E0,-2.932851105E0,4.962955834E0
1.447806208E0,6.791377258E-1,-3.788322144E0,-3.407963104E0,5.140702796E0
1.457778208E0,-9.490264893E-2,-3.630250854E0,-3.848497009E0,5.291375720E0
1.467751208E0,-6.400689697E-1,-3.288212128E0,-4.074377289E0,5.274711137E0
1.477723208E0,-9.535171509E-1,-2.990481262E0,-4.339925079E0,5.356036112E0
1.487696208E0,-1.267414398E0,-2.834505615E0,-4.556374969E0,5.513738677E0
1.497669208E0,-1.335373077E0,-2.805915070E0,-4.472100220E0,5.445737876E0
1.507641208E0,-1.081650696E0,-2.692451019E0,-3.927682343E0,4.883231441E0
1.517614208E0,-6.312373352E-1,-2.229763184E0,-4.149670715E0,4.752901374E0
1.527586208E0,2.290237427E-1,-1.834285583E0,-4.214934998E0,4.602470262E0
1.537559208E0,1.566043396E0,-1.614392853E0,-4.637057190E0,5.153741901E0
1.547532208E0,3.492387543E0,-1.386716309E0,-5.120252380E0,6.351120949E0
1.557504208E0,5.274880829E0,-6.821315002E-1,-5.004093933E0,7.302782157E0
1.567477208E0,7.037465515E0,1.634002075E0,-4.790488129E0,8.668601973E0
1.577450208E0,9.530381470E0,5.485043793E0,-4.735252991E0,1.197232213E1
1.587422208E0,1.276979507E1,9.540260925E0,-4.021237793E0,1.643942207E1
1.597395208E0,1.690644287E1,1.265573227E1,-3.070564728E0,2.134065926E1
1.607367208E0,2.230511627E1,1.438957672E1,-2.855312347E0,2.669702116E1
1.617340208E0,2.880998932E1,1.529130157E1,-3.360661469E0,3.278922741E1
1.627313208E0,3.458767456E1,1.573752365E1,-4.557572479E0,3.827203090E1
1.637285208E0,3.723955994E1,1.574800186E1,-5.786666565E0,4.084445981E1
1.647258208E0,3.685695557E1,1.535731430E1,-6.686445465E0,4.048445170E1
1.657231208E0,3.401301956E1,1.481154922E1,-7.607779541E0,3.787011750E1
1.667203208E0,2.945170486E1,1.367271744E1,-7.918233948E0,3.342221642E1
1.677176208E0,2.442605576E1,1.180894318E1,-7.205865326E0,2.807147723E1
1.687148208E0,1.951072723E1,1.010892838E1,-6.026168518E0,2.278538165E1
1.697121208E0,1.501871841E1,8.777746582E0,-4.426744537E0,1.795011992E1
1.707094208E0,1.127380600E1,7.677384796E0,-2.756667480E0,1.391546459E1
1.717066208E0,8.376580811E0,6.732848969E0,-1.317709808E0,1.082749835E1
1.727039208E0,6.130800934E0,5.888903961E0,-1.448986816E-1,8.502170639E0
1.737012208E0,4.341421967E0,5.177732849E0,8.740324402E-1,6.813280770E0
1.746984208E0,2.775977325E0,4.645589447E0,1.662742310E0,5.661471841E0
1.756957208E0,1.197659454E0,4.245022430E0,2.227667542E0,4.941366843E0
1.766929208E0,-3.230282593E-1,3.987258453E0,2.502645721E0,4.718666426E0
1.776902208E0,-1.606459351E0,3.765120392E0,2.563419342E0,4.829902891E0
1.786875208E0,-2.571203156E0,3.552712097E0,2.470612335E0,5.033564763E0
1.796847208E0,-3.324436798E0,3.368594971E0,2.313738556E0,5.268082973E0
1.806820208E0,-4.034859467E0,3.251089325E0,2.134710846E0,5.604164800E0
1.816792208E0,-4.585713959E0,3.161575470E0,1.934577026E0,5.896348042E0
1.826765208E0,-4.818779297E0,2.981799316E0,1.773661652E0,5.937814137E0
1.836737458E0,-4.776417389E0,2.721640320E0,1.655706940E0,5.741328642E0
1.846709458E0,-4.486021271E0,2.440824280E0,1.715283051E0,5.387411804E0
1.856682458E0,-4.054319000E0,2.089504852E0,2.029928741E0,4.992408615E0
1.866655458E0,-3.422931976E0,1.687590637E0,2.573747864E0,4.603108030E0
1.876627458E0,-2.700833588E0,1.206042023E0,3.282973022E0,4.418931013E0
1.886600458E0,-1.937570801E0,8.238867188E-1,3.938459930E0,4.465919453E0
1.896572458E0,-1.142873383E0,7.448510742E-1,4.151167603E0,4.369571507E0
1.906545458E0,-3.872447205E-1,9.514215088E-1,3.582051086E0,3.726426082E0
1.916518458E0,3.203338623E-1,1.273401947E0,2.680775299E0,2.985083333E0
1.926490458E0,1.062939606E0,1.709145813E0,2.044149170E0,2.868721988E0
1.936463458E0,1.680555267E0,2.392774200E0,1.366957397E0,3.227724726E0
1.946435458E0,2.032922516E0,3.537144470E0,4.125421143E-1,4.100531180E0
1.956408458E0,2.184407501E0,5.222639465E0,-7.957452393E-1,5.716713182E0
1.966381458E0,2.400707703E0,7.311844940E0,-2.041903839E0,7.962150789E0
1.976353458E0,3.111579437E0,9.984537048E0,-3.220552826E0,1.094279979E1
1.986326458E0,4.786596222E0,1.424243271E1,-4.401746521E0,1.565674823E1
1.996299458E0,8.542286224E0,1.907213928E1,-4.127666473E0,2.130152063E1
2.006271458E0,1.387838974E1,2.282738022E1,-2.133513336E0,2.680020277E1
2.016244458E0,2.117197266E1,2.498439468E1,9.915380859E-1,3.276363154E1
2.026216458E0,3.054847412E1,2.424657898E1,3.721860352E0,3.917854142E1
2.036189458E0,3.847539001E1,2.276510971E1,2.983445892E0,4.480520959E1
2.046162458E0,4.150149719E1,2.169603287E1,7.153623962E-1,4.683592483E1
2.056134458E0,3.968277924E1,2.017983582E1,1.347198486E-1,4.451928673E1
2.066107458E0,3.486654465E1,1.801728287E1,6.164181519E-1,3.925147626E1
2.076080458E0,2.920007812E1,1.513951721E1,7.649093628E-2,3.289157027E1
2.086052458E0,2.389496017E1,1.136346954E1,-5.560935974E-1,2.646519983E1
2.096025458E0,1.912393158E1,7.492369537E0,-2.052232361E-1,2.054026477E1
2.105997458E0,1.478041397E1,4.661755829E0,4.056564331E-1,1.550345644E1
2.115970458E0,1.121348145E1,2.757116547E0,1.287622375E0,1.161902875E1
2.125943458E0,8.585246887E0,1.353186035E0,2.468666382E0,9.035036816E0
2.135915458E0,6.562503204E0,4.029620361E-1,3.482208710E0,7.440067487E0
2.145888458E0,5.134772186E0,-1.954934692E-1,3.978426819E0,6.498613933E0
2.155860458E0,4.001478882E0,-9.333091736E-1,3.843706970E0,5.626453815E0
2.165833458E0,3.079246674E0,-1.914818115E0,3.291954346E0,4.897474033E0
2.175806458E0,2.162852325E0,-2.990630951E0,2.630479889E0,4.532243166E0
2.185778458E0,1.423988800E0,-4.093537445E0,1.842817841E0,4.709646538E0
2.195751458E0,7.863148499E-1,-5.184169464E0,7.753875732E-1,5.300483937E0
2.205724458E0,2.297721863E-1,-6.036497040E0,-2.311193848E-1,6.045288077E0
2.215696458E0,-5.224136353E-2,-6.609655151E0,-1.289268951E0,6.734425351E0
2.225669458E0,-2.233355713E-1,-7.080575867E0,-2.510130157E0,7.515662764E0
2.235641458E0,-7.670050049E-1,-7.135062561E0,-3.581152954E0,8.020104171E0
2.245614458E0,-1.625918884E0,-6.391708374E0,-4.164489899E0,7.800033607E0
2.255587458E0,-2.164798279E0,-5.141208801E0,-4.512516174E0,7.175038798E0
2.265559458E0,-2.373164978E0,-4.273014221E0,-4.583768005E0,6.700857533E0
2.275532458E0,-2.427951050E0,-4.058210907E0,-4.308191071E0,6.397228491E0
2.285504458E0,-2.258503418E0,-4.213887177E0,-3.936513977E0,6.193046513E0
2.295477458E0,-1.922601929E0,-4.476890259E0,-3.586541748E0,6.049977378E0
2.305450458E0,-1.457219696E0,-4.785997467E0,-3.163970490E0,5.919456922E0
2.315422458E0,-8.864566040E-1,-5.134472809E0,-2.815644836E0,5.922539335E0
2.325395458E0,-3.103047180E-1,-5.399721222E0,-2.529739380E0,5.971001559E0
2.335367458E0,2.134561157E-1,-5.502707062E0,-2.466121674E0,6.033830013E0
2.345340458E0,1.164727936E0,-5.182672577E0,-2.622995453E0,5.924254497E0
2.355313458E0,2.757415924E0,-4.127217407E0,-3.315156097E0,5.968879799E0
2.365285458E0,5.852679291E0,-2.253713379E0,-3.944746857E0,7.409055718E0
2.375258458E0,1.110929810E1,2.993774414E-2,-4.509522400E0,1.198971195E1
2.385231458E0,1.743199997E1,2.675536194E0,-4.703219604E0,1.825249001E1
2.395203458E0,2.376682663E1,6.434369659E0,-4.973707123E0,2.511973176E1
2.405176458E0,2.945380051E1,1.129745682E1,-6.210435333E0,3.215164695E1
2.415148458E0,3.463288055E1,1.452489532E1,-8.368347931E0,3.847646354E1
2.425121458E0,3.900753342E1,1.418674850E1,-1.166329605E1,4.311477671E1
2.435094458E0,4.117742111E1,1.188782913E1,-1.440439590E1,4.521489923E1
2.445066458E0,4.058435440E1,9.656269684E0,-1.382689682E1,4.394902094E1
2.455039458E0,3.711322266E1,8.515641632E0,-1.036474640E1,3.946308929E1
2.465012458E0,3.153432404E1,8.382568359E0,-5.818999329E0,3.314425739E1
2.474984458E0,2.570888809E1,8.214767303E0,-1.368603973E0,2.702410786E1
2.484957458E0,2.103291183E1,7.267537079E0,2.234104156E0,2.236496584E1
2.494929458E0,1.750385056E1,6.117328949E0,4.668940887E0,1.912081344E1
2.504902458E0,1.450588486E1,5.326822815E0,5.971831512E0,1.656678932E1
2.514875458E0,1.157976974E1,4.673281860E0,6.564898224E0,1.410774679E1
2.524847458E0,8.720715179E0,4.080813904E0,6.424190826E0,1.157472000E1
2.534820458E0,6.150859222E0,3.558549957E0,5.843099213E0,9.199899748E0
2.544792458E0,3.755989380E0,3.169059906E0,5.283413086E0,7.215597740E0
2.554765458E0,1.369502106E0,3.070115662E0,4.823120270E0,5.879084566E0
2.564738458E0,-5.123844910E-1,3.170257416E0,4.374802551E0,5.426966677E0
2.574710458E0,-1.839524689E0,3.152145081E0,3.905079346E0,5.345045780E0
2.584683458E0,-2.706671448E0,2.940485229E0,3.474275208E0,5.295574750E0
2.594656458E0,-3.316503296E0,2.619253235E0,3.146905975E0,5.269032059E0
2.604628458E0,-3.911366272E0,2.401156769E0,2.925216980E0,5.442539327E0
2.614601458E0,-4.540657654E0,2.206561432E0,2.742447052E0,5.745215498E0
2.624573458E0,-5.147645416E0,1.969753876E0,2.530487823E0,6.064779657E0
2.634546458E0,-5.555696869E0,1.811383209E0,2.447260895E0,6.335294998E0
2.644519458E0,-5.573809204E0,1.673968964E0,2.356848907E0,6.278873936E0
2.654491458E0,-5.455255737E0,1.496138763E0,2.087858276E0,6.029709656E0
2.664464458E0,-5.320835266E0,1.347348175E0,1.968556366E0,5.831110460E0
2.674436458E0,-4.879552917E0,1.237027588E0,1.918111267E0,5.386968049E0
2.684409458E0,-4.200265503E0,1.079255676E0,1.804647217E0,4.697209245E0
2.694382458E0,-3.519331512E0,8.922944641E-1,1.677262115E0,3.999386442E0
2.704354458E0,-2.779420166E0,8.050259399E-1,1.688339081E0,3.350183887E0
2.714327458E0,-1.846110992E0,9.689350891E-1,1.768123169E0,2.733719178E0
2.724299458E0,-7.894583130E-1,1.430126038E0,1.763482819E0,2.403825402E0
2.734272458E0,3.760180664E-1,2.143692169E0,1.975292358E0,2.939147088E0
2.744245458E0,1.761087799E0,3.039579163E0,2.231559448E0,4.161769971E0
