"Time (s)","Acceleration x (m/s^2)","Acceleration y (m/s^2)","Acceleration z (m/s^2)","Absolute acceleration (m/s^2)"
6.033750004E-3,1.609303436E0,-8.160729675E0,1.888772278E0,8.529644020E0
1.600675000E-2,1.518741760E0,-7.945177917E0,2.101330261E0,8.357512641E0
2.597875000E-2,1.485959930E0,-7.878716125E0,2.188898163E0,8.311048061E0
3.595175000E-2,1.449136505E0,-7.910300446E0,1.988614655E0,8.284167912E0
4.592375000E-2,1.429527283E0,-8.049660645E0,1.460812225E0,8.305092239E0
5.589675000E-2,1.705253906E0,-8.329279175E0,7.589218140E-1,8.535850560E0
6.586875000E-2,2.248623962E0,-8.755442963E0,1.517843628E-1,9.040858902E0
7.584175000E-2,2.723735962E0,-9.129215698E0,-2.001338196E-1,9.528975307E0
8.581375000E-2,3.051554260E0,-9.259893951E0,-2.249821472E-1,9.752345172E0
9.578675000E-2,3.301983490E0,-9.184899902E0,-4.939727783E-2,9.760528740E0
1.057587500E-1,3.479214935E0,-9.020841064E0,2.582130432E-1,9.671979324E0
1.157317500E-1,3.619323578E0,-8.816815338E0,5.578898621E-1,9.547092592E0
1.257037500E-1,3.790118408E0,-8.581205292E0,5.999523926E-1,9.400107695E0
1.356757500E-1,3.826343079E0,-8.404123535E0,3.110531616E-1,9.239423565E0
1.456487500E-1,3.743415527E0,-8.371042328E0,-1.426533508E-1,9.171033717E0
1.556207500E-1,3.611689453E0,-8.466693420E0,-4.117936707E-1,9.214052974E0
1.655937500E-1,3.391796722E0,-8.630003815E0,-4.534071350E-1,9.283686169E0
1.755657500E-1,3.065175934E0,-8.711284790E0,-2.347119141E-1,9.237796051E0
1.855387500E-1,2.705324249E0,-8.830886078E0,2.375559998E-1,9.239034639E0
1.955107500E-1,2.558030548E0,-9.059760132E0,7.813751221E-1,9.446339027E0
2.054837500E-1,2.609972534E0,-9.213789825E0,1.170565796E0,9.647595755E0
2.154557500E-1,2.672392731E0,-9.441166992E0,1.317560120E0,9.900165744E0
2.254287500E-1,2.770139465E0,-9.771529999E0,1.265169067E0,1.023509277E1
2.354007500E-1,2.964435425E0,-1.025547363E1,9.617500305E-1,1.071856240E1
2.453737500E-1,3.247646484E0,-1.076860657E1,5.590873718E-1,1.126155734E1
2.553457500E-1,3.598516846E0,-1.120884109E1,2.511776733E-1,1.177499607E1
2.653177500E-1,3.956123199E0,-1.143921204E1,3.427871704E-2,1.210403477E1
2.752907500E-1,4.229305115E0,-1.149369873E1,-2.372566223E-1,1.224942541E1
2.852627500E-1,4.456532593E0,-1.137873779E1,-5.125341797E-1,1.223106896E1
2.952357500E-1,4.759951630E0,-1.124192230E1,-7.192543030E-1,1.222927975E1
3.052077500E-1,5.187312927E0,-1.113010483E1,-9.729766846E-1,1.231804094E1
3.151807500E-1,5.670508118E0,-1.116857483E1,-1.182840271E0,1.258136865E1
3.251527500E-1,6.028713226E0,-1.131691635E1,-1.428778839E0,1.290191412E1
3.351257500E-1,6.280339966E0,-1.142708725E1,-1.549577637E0,1.313096280E1
3.450977500E-1,6.300098877E0,-1.137514526E1,-1.251996460E0,1.306340961E1
3.550707500E-1,6.166277161E0,-1.143786484E1,-3.091072083E-1,1.299781802E1
3.650427500E-1,6.078559570E0,-1.180175812E1,8.431965637E-1,1.330193075E1
3.750157500E-1,6.107898560E0,-1.227507385E1,1.471889191E0,1.378950038E1
3.849877500E-1,6.171815643E0,-1.257834320E1,1.242865448E0,1.406594258E1
3.949597500E-1,6.153403931E0,-1.260109589E1,8.487350464E-2,1.402352313E1
4.049327500E-1,5.956114197E0,-1.245080841E1,-1.182989960E0,1.385270341E1
4.149047500E-1,5.368735657E0,-1.192674820E1,-1.614692230E0,1.317869023E1
4.248777500E-1,4.403842163E0,-1.144145737E1,-8.931925964E-1,1.229221565E1
4.348497500E-1,3.229833527E0,-1.115465378E1,7.798782349E-2,1.161310499E1
4.448227500E-1,1.801952820E0,-1.035546570E1,5.183720398E-1,1.052384974E1
4.547947500E-1,2.499801636E-1,-9.579629059E0,7.137158203E-1,9.609431474E0
4.647677500E-1,-8.541238403E-1,-1.004935226E1,8.211923218E-1,1.011896068E1
4.747397500E-1,-1.570683746E0,-1.052311707E1,6.870712280E-2,1.063991357E1
4.847127500E-1,-2.060614929E0,-1.036220169E1,-7.420069885E-1,1.059112516E1
4.946847500E-1,-2.136507111E0,-9.741592255E0,-1.129850464E0,1.003692405E1
5.046567500E-1,-1.940863953E0,-9.427395630E0,-1.494192810E0,9.740398010E0
5.146297500E-1,-1.634900208E0,-9.748028870E0,-2.442470856E0,1.018148464E1
5.246017500E-1,-1.431173859E0,-1.046488815E1,-3.766766968E0,1.121386089E1
5.345747500E-1,-1.457519073E0,-1.127739853E1,-4.235891418E0,1.213453153E1
5.445467500E-1,-1.563348999E0,-1.147139511E1,-4.420008545E0,1.239247519E1
5.545197500E-1,-1.638492737E0,-1.096469879E1,-4.394561462E0,1.192566344E1
5.644917500E-1,-1.374441833E0,-1.060215271E1,-3.481759644E0,1.124354849E1
5.744647500E-1,-1.090632019E0,-1.043495041E1,-2.003433838E0,1.068135831E1
5.844367500E-1,-3.655398560E-1,-9.939630432E0,-6.860234070E-1,9.969979971E0
5.944097500E-1,4.942721558E-1,-9.662257233E0,3.031196594E-1,9.679638491E0
6.043817500E-1,1.478625183E0,-9.464219055E0,2.033221893E0,9.792434121E0
6.143547500E-1,2.864143982E0,-9.798174591E0,3.293600922E0,1.072638584E1
6.243267500E-1,4.064797211E0,-1.004231689E1,1.873354340E0,1.099455144E1
6.342997500E-1,4.700225830E0,-9.946067047E0,-4.900808716E-1,1.101165527E1
6.442717500E-1,4.411476288E0,-9.516460419E0,-1.674567719E0,1.062206755E1
6.542437500E-1,3.681444397E0,-8.662635956E0,-1.739083557E0,9.571766095E0
6.642167500E-1,2.494562531E0,-7.575446777E0,-7.099736023E-1,8.007140477E0
6.741887500E-1,1.078656921E0,-6.486611023E0,-4.340972900E-2,6.575827531E0
6.841617500E-1,-3.577560425E-2,-5.631888428E0,-2.616558838E-1,5.638076885E0
6.941337500E-1,-9.255253601E-1,-5.064119110E0,-4.421804810E-1,5.166954919E0
7.041067500E-1,-1.551074524E0,-4.688250732E0,-5.168751526E-1,4.965147232E0
7.140787500E-1,-1.804497528E0,-4.517755280E0,-4.710704041E-1,4.887558841E0
7.240517500E-1,-1.899699554E0,-4.314178619E0,-8.005352783E-1,4.781406936E0
7.340237500E-1,-1.980531464E0,-4.099824371E0,-1.398841095E0,4.763173434E0
7.439967500E-1,-1.976040802E0,-3.814817047E0,-1.551373901E0,4.567748607E0
7.539687500E-1,-1.838027802E0,-3.561394043E0,-1.520088959E0,4.286320587E0
7.639417500E-1,-1.617236938E0,-3.426524506E0,-1.562600555E0,4.098566335E0
7.739137500E-1,-1.200952606E0,-3.255130920E0,-1.624721375E0,3.831172669E0
7.838857500E-1,-7.026388550E-1,-3.300486603E0,-1.727707214E0,3.791026958E0
7.938587500E-1,-2.604583740E-1,-3.601809998E0,-1.898052979E0,4.079642010E0
8.038307500E-1,2.429447937E-1,-3.981719971E0,-2.022294617E0,4.472448056E0
8.138037500E-1,5.604345703E-1,-4.168830872E0,-2.489173737E0,4.887660344E0
8.237757500E-1,7.976911926E-1,-4.303850098E0,-3.354374542E0,5.514641010E0
8.337487500E-1,1.252445526E0,-4.566553802E0,-4.458029480E0,6.503542133E0
8.437207500E-1,1.766027527E0,-5.256618805E0,-5.988746338E0,8.161861135E0
8.536937500E-1,2.292333069E0,-6.863676910E0,-7.506739655E0,1.042669611E1
8.636657500E-1,3.266507263E0,-1.014829651E1,-8.705446930E0,1.376382207E1
8.736387500E-1,4.834496613E0,-1.519999146E1,-1.079330521E1,1.925895986E1
8.836107500E-1,6.588549042E0,-2.108560226E1,-1.333995941E1,2.580631935E1
8.935837500E-1,8.220904541E0,-2.583567444E1,-1.488265137E1,3.092828248E1
9.035557500E-1,8.742719421E0,-2.611604141E1,-1.261920822E1,3.029401225E1
9.135277500E-1,6.944508820E0,-2.193538513E1,-8.391849060E0,2.449102804E1
9.235007500E-1,4.378095703E0,-1.707394455E1,-5.473966827E0,1.845674991E1
9.334727500E-1,3.303929443E0,-1.214978439E1,-4.100872192E0,1.324199242E1
9.434457500E-1,2.115251312E0,-7.219187622E0,-2.995271301E0,8.097074052E0
9.534177500E-1,4.328997803E-1,-3.562292175E0,-2.037263489E0,4.126471893E0
9.633907500E-1,-1.586850128E0,-2.412233734E0,-7.201524353E-1,2.975833404E0
9.733627500E-1,-3.704795837E0,-3.051404572E0,1.052461395E0,4.913680601E0
9.833357500E-1,-4.672832794E0,-4.065695343E0,1.781295776E0,6.445018199E0
9.933077500E-1,-5.428012390E0,-5.621410217E0,2.270628204E0,8.137525655E0
1.003280750E0,-7.164551239E0,-8.586294708E0,2.992576904E0,1.157630199E1
1.013252750E0,-9.302255859E0,-1.204619980E1,2.533331909E0,1.542921463E1
1.023225750E0,-1.045096710E1,-1.615725082E1,5.490582275E-1,1.925047876E1
1.033197750E0,-9.325158234E0,-1.916853882E1,2.210902405E-1,2.131760628E1
1.043170750E0,-6.262676697E0,-1.779739014E1,-1.872905273E0,1.895985204E1
1.053142750E0,-3.538042603E0,-1.557466232E1,-4.878056030E0,1.669979888E1
1.063114750E0,-1.279239807E0,-1.357107880E1,-5.593568115E0,1.473426749E1
1.073087750E0,6.750961304E-2,-1.139505386E1,-3.490890656E0,1.191797498E1
1.083059750E0,4.372407532E-1,-9.970166931E0,7.334747314E-3,9.979752598E0
1.093032750E0,6.849755859E-1,-8.854387207E0,2.340682526E0,9.184125383E0
1.103004750E0,9.791139221E-1,-7.922874298E0,3.402424622E0,8.677966036E0
1.112977750E0,1.382674713E0,-7.348668365E0,3.785028992E0,8.380999975E0
1.122949750E0,1.694626007E0,-7.095694427E0,3.316353607E0,8.013665701E0
1.132922750E0,1.976938934E0,-6.985822906E0,2.643203430E0,7.726353189E0
1.142894750E0,2.207309875E0,-7.079977112E0,2.062860260E0,7.697641538E0
1.152867750E0,2.464026031E0,-7.392676849E0,1.694176941E0,7.974542670E0
1.162839750E0,2.617007904E0,-7.907606049E0,1.275647278E0,8.426520027E0
1.172812750E0,1.917063446E0,-8.577463074E0,-1.099014587E0,8.857530023E0
1.182784750E0,8.373587036E-1,-9.567653961E0,-4.088298340E0,1.043816819E1
1.192757750E0,4.318519592E-1,-1.022164398E1,-5.027145996E0,1.139915342E1
1.202729750E0,6.265969849E-1,-1.040142014E1,-4.420158234E0,1.131900894E1
1.212701750E0,1.083596649E0,-9.922416229E0,-3.565735016E0,1.059919769E1
1.222674750E0,1.450034637E0,-9.263037415E0,-2.702779541E0,9.757637001E0
1.232646750E0,1.723665619E0,-9.313781891E0,-1.603166199E0,9.606648642E0
1.242619750E0,1.705852661E0,-9.474397888E0,-4.767585754E-1,9.638539691E0
1.252591750E0,1.303190002E0,-9.559870148E0,3.632945251E-1,9.655123217E0
1.262564750E0,8.092172241E-1,-9.126072235E0,6.156697083E-1,9.182541922E0
1.272536750E0,4.540058899E-1,-8.357270966E0,5.454656982E-1,8.387349532E0
1.282509750E0,1.660047913E-1,-7.790998535E0,2.835104370E-1,7.797922411E0
1.292481750E0,-1.886077881E-1,-7.423662415E0,-2.230361938E-1,7.429406550E0
1.302454750E0,-6.324348450E-1,-7.346872101E0,-7.610174561E-1,7.413207880E0
1.312426750E0,-9.379495239E-1,-7.686815186E0,-8.367599487E-1,7.788905200E0
1.322399750E0,-8.852590942E-1,-8.186625824E0,-5.198689270E-1,8.250744800E0
1.332371750E0,-3.212319946E-1,-8.592282257E0,-2.874023438E-2,8.598333000E0
1.342344750E0,2.869532776E-1,-8.633296967E0,4.138893127E-1,8.647974506E0
1.352316750E0,6.529421997E-1,-8.468639374E0,5.884263611E-1,8.514131309E0
1.362288750E0,8.132588196E-1,-8.288563843E0,5.269042969E-1,8.345016993E0
1.372261750E0,6.902146912E-1,-8.190966797E0,3.773652649E-1,8.228653470E0
1.382233750E0,3.867956543E-1,-8.300838318E0,2.412982178E-1,8.313347851E0
1.392206750E0,1.327738953E-1,-8.544232178E0,1.727407837E-1,8.547009523E0
1.402178750E0,-6.227050781E-2,-8.687633972E0,2.369572449E-1,8.691087986E0
1.412151750E0,-1.706451416E-1,-8.859177246E0,4.477189636E-1,8.872124521E0
1.422123750E0,-3.585044861E-1,-8.943601685E0,4.426295471E-1,8.961721792E0
1.432096750E0,-5.315446472E-1,-9.001531219E0,1.965412903E-1,9.019353219E0
1.442068750E0,-5.129832458E-1,-9.204209747E0,-1.498384094E-1,9.219711516E0
1.452041750E0,-3.526666260E-1,-9.467961273E0,-6.544390869E-1,9.497102450E0
1.462013750E0,-1.167572021E-2,-9.719737701E0,-1.330133972E0,9.810336064E0
1.471986750E0,5.918692017E-1,-1.004396347E1,-1.953288116E0,1.024923635E1
1.481958750E0,1.287023621E0,-1.041728714E1,-2.253863068E0,1.073574403E1
1.491931750E0,1.816772003E0,-1.070064789E1,-2.194885712E0,1.107348405E1
1.501903750E0,2.030976563E0,-1.083087708E1,-1.948348389E0,1.119056859E1
1.511876750E0,1.841620331E0,-1.109298203E1,-1.672023010E0,1.136844214E1
1.521848750E0,1.482068024E0,-1.149729126E1,-1.292412415E0,1.166424287E1
1.531820750E0,1.446891174E0,-1.168320465E1,-6.661148071E-1,1.179128805E1
1.541793750E0,1.762884064E0,-1.157692566E1,3.525169373E-1,1.171568334E1
1.551765750E0,2.186652832E0,-1.178484329E1,1.564845886E0,1.208770965E1
1.561738750E0,2.708467712E0,-1.241907440E1,2.355501709E0,1.292739706E1
1.571710750E0,3.288361816E0,-1.298714310E1,1.811532898E0,1.351890753E1
1.581683750E0,3.725901947E0,-1.346105759E1,2.269281006E-1,1.396903408E1
1.591655750E0,4.031865692E0,-1.393063110E1,-1.689237213E0,1.460040911E1
1.601628750E0,4.229454803E0,-1.420471115E1,-3.136577454E0,1.514926483E1
1.611600750E0,4.198020172E0,-1.436876999E1,-3.688330078E0,1.541715613E1
1.621573750E0,3.650009766E0,-1.459554840E1,-3.498674469E0,1.544646650E1
1.631545750E0,2.774480438E0,-1.468251755E1,-3.241958313E0,1.529000840E1
1.641518750E0,1.955982513E0,-1.452459595E1,-2.472857666E0,1.486286581E1
1.651490750E0,9.434880066E-1,-1.413750092E1,-1.121168518E0,1.421323751E1
1.661463750E0,-5.751040649E-1,-1.339773926E1,1.245410156E-1,1.341065518E1
1.671435750E0,-1.934876404E0,-1.269974075E1,1.034798126E0,1.288790010E1
1.681408750E0,-3.115321655E0,-1.221564743E1,1.033001862E0,1.264888786E1
1.691380750E0,-4.588558044E0,-1.132440079E1,7.349716187E-1,1.224079660E1
1.701353750E0,-5.650150452E0,-1.040171951E1,4.511618042E-1,1.184582272E1
1.711325750E0,-6.213279419E0,-9.271270294E0,1.324745178E-1,1.116148930E1
1.721297750E0,-6.992708588E0,-8.428971863E0,8.045768738E-1,1.098147914E1
1.731270750E0,-7.720046082E0,-8.732241211E0,1.791175232E0,1.179234738E1
1.741242750E0,-7.480693817E0,-9.614356842E0,1.435215454E0,1.226607031E1
1.751215750E0,-6.477779388E0,-1.052865555E1,-8.083190918E-2,1.236206889E1
1.761187750E0,-4.522695007E0,-1.090856552E1,-3.082240448E0,1.220458021E1
1.771160750E0,-2.372865601E0,-1.099778000E1,-7.006479950E0,1.325414718E1
1.781132750E0,-7.915539551E-1,-1.092428284E1,-9.190139008E0,1.429773297E1
1.791105750E0,8.098159790E-2,-1.071367081E1,-7.599546661E0,1.313553994E1
1.801077750E0,7.222480774E-1,-1.071606583E1,-3.251089325E0,1.122164386E1
1.811050750E0,1.247655487E0,-1.052536240E1,1.362167358E-2,1.059906049E1
1.821022750E0,2.071991272E0,-1.021909927E1,2.518512726E0,1.072688418E1
1.830995750E0,2.726729736E0,-1.025277924E1,3.287463684E0,1.110684269E1
1.840967750E0,2.848875732E0,-1.049931656E1,2.673739929E0,1.120270621E1
1.850940750E0,2.723586273E0,-1.043734543E1,1.217717743E0,1.085536449E1
1.860912750E0,2.144590302E0,-1.031819321E1,-4.040098572E-1,1.054644976E1
1.870885750E0,8.189469910E-1,-1.019889130E1,-4.583468628E-1,1.024197929E1
1.880857750E0,-4.722679138E-1,-9.731862488E0,-1.517843628E-1,9.744497060E0
1.890830750E0,-1.931583252E0,-8.570128326E0,2.793191528E-1,8.789546779E0
1.900802750E0,-2.939886475E0,-7.240593109E0,1.005010071E0,7.879033335E0
1.910775750E0,-3.576063538E0,-5.831273804E0,8.934919739E-1,6.898573222E0
1.920747750E0,-4.024231567E0,-4.335733795E0,8.397537231E-1,5.974798203E0
1.930719750E0,-4.221820679E0,-2.901266785E0,2.375559998E-1,5.128113849E0
1.940692750E0,-4.072880402E0,-2.308349762E0,-6.722520447E-1,4.729561946E0
1.950664750E0,-3.842210083E0,-1.434616699E0,-9.461824036E-1,4.209033682E0
1.960637750E0,-3.590733032E0,-9.141490173E-1,-1.078656921E0,3.859084462E0
1.970609750E0,-3.009940796E0,-8.659492493E-1,-1.005010071E0,3.289324694E0
1.980582750E0,-2.407892761E0,-1.156045990E0,-1.241218872E0,2.945337700E0
1.990554750E0,-1.800306244E0,-1.584006042E0,-1.113534393E0,2.643886639E0
2.000527750E0,-1.269659729E0,-2.193837891E0,-5.751040649E-1,2.599173946E0
2.010499750E0,-9.794132996E-1,-2.764451294E0,-6.209088135E-1,2.997827400E0
2.020472750E0,-9.912387085E-1,-3.141517181E0,-7.616162109E-1,3.381086161E0
2.030444750E0,-1.213227081E0,-3.363505554E0,-1.283431091E0,3.798984724E0
2.040417750E0,-1.334025879E0,-3.605252838E0,-1.870659943E0,4.275142301E0
2.050389750E0,-1.522483978E0,-3.749403076E0,-2.704426117E0,4.867227292E0
2.060362750E0,-1.932481384E0,-3.980971527E0,-4.116888885E0,6.044120506E0
2.070334750E0,-2.183958435E0,-4.997507629E0,-5.762416992E0,7.934116620E0
2.080307750E0,-2.096390533E0,-7.153025208E0,-8.230634308E0,1.110423181E1
2.090279750E0,-1.788630524E0,-1.148142426E1,-1.196402069E1,1.667813218E1
2.100252750E0,-1.087937622E0,-1.892274994E1,-1.800815186E1,2.614474339E1
2.110224750E0,7.499404907E-2,-2.844849106E1,-2.234014343E1,3.617187134E1
2.120197750E0,2.068249054E0,-3.593696869E1,-1.995694931E1,4.115851307E1
2.130169750E0,1.948947144E0,-3.309722397E1,-1.068373306E1,3.483341473E1
2.140141750E0,-4.345463562E-1,-2.406276123E1,-4.583318939E0,2.449922695E1
2.150114750E0,-3.661386108E-1,-1.524624527E1,-3.978576508E0,1.576106352E1
2.160086750E0,9.235794067E-2,-8.398135986E0,-4.272714844E0,9.423020225E0
2.170059750E0,-3.495231628E-1,-2.936293945E0,-4.019890594E0,4.990341568E0
2.180031750E0,-1.437011719E0,2.023791504E-1,-2.437531128E0,2.836814763E0
2.190004750E0,-3.844904480E0,9.641450500E-1,4.999603271E-2,3.964261059E0
2.199976750E0,-6.029012604E0,4.522096252E-1,4.057013397E0,7.280991981E0
2.209949750E0,-7.110812988E0,-1.478924561E0,5.808072052E0,9.299708607E0
2.219921750E0,-8.350235596E0,-4.714296570E0,5.203329620E0,1.090988844E1
2.229894750E0,-1.000444565E1,-8.354426880E0,4.007616119E0,1.363621532E1
2.239866750E0,-1.132215546E1,-1.360760284E1,4.361929321E-1,1.770729577E1
2.249839750E0,-1.149354904E1,-1.804931625E1,-7.499404907E-1,2.141125633E1
2.259811750E0,-1.106259521E1,-1.958527222E1,6.029461670E-1,2.250172093E1
2.269784750E0,-8.515791321E0,-1.838342148E1,8.903485107E-1,2.027958598E1
2.279756750E0,-4.425247650E0,-1.451920715E1,-3.620970154E-1,1.518292816E1
2.289729750E0,-2.612966309E0,-1.142918289E1,-3.852987671E-1,1.173039938E1
2.299701750E0,-1.573677521E0,-9.247170410E0,4.116439819E-1,9.389146516E0
2.309674750E0,-8.309220886E-1,-7.730973358E0,1.138532410E0,7.858411839E0
2.319646750E0,-3.923341370E-1,-6.961573334E0,1.457968140E0,7.123419155E0
2.329619750E0,5.029541016E-2,-6.934180298E0,1.417851562E0,7.077830818E0
2.339591750E0,4.489164734E-1,-7.661966858E0,1.452429657E0,7.811326010E0
2.349564750E0,9.385482788E-1,-8.481961670E0,1.469943237E0,8.659404123E0
2.359536750E0,1.480421448E0,-8.878337402E0,9.786648560E-1,9.053966401E0
2.369509750E0,1.735041962E0,-8.975186005E0,2.016307068E-1,9.143576399E0
2.379481750E0,1.661245422E0,-8.727451172E0,-6.893165588E-1,8.910852800E0
2.389454750E0,1.431323547E0,-8.190667419E0,-1.186881866E0,8.399071880E0
2.399426750E0,9.892927551E-1,-7.737409973E0,-1.224304047E0,7.895893467E0
2.409402750E0,4.827461243E-1,-7.693251801E0,-8.672964478E-1,7.757020705E0
2.419375750E0,-1.445993042E-1,-8.153993683E0,-4.622387695E-1,8.168364991E0
2.429347750E0,-8.530760193E-1,-8.656798096E0,-5.792953491E-1,8.717997194E0
2.439320750E0,-1.487756195E0,-9.079818420E0,-1.266516266E0,9.287657643E0
2.449292750E0,-1.548529816E0,-9.187594299E0,-1.899998932E0,9.508934196E0
2.459265750E0,-1.075214081E0,-9.021140442E0,-2.228116608E0,9.354227056E0
2.469237750E0,-7.725434875E-1,-8.778195648E0,-2.309846649E0,9.109826223E0
2.479210750E0,-7.423063660E-1,-8.546776886E0,-2.116149445E0,8.836090898E0
2.489182750E0,-1.086141357E0,-8.184829559E0,-1.684297485E0,8.426624234E0
2.499155750E0,-1.987566833E0,-7.973469086E0,-1.301094360E0,8.319824380E0
2.509127750E0,-2.458637238E0,-8.330027618E0,-6.303392029E-1,8.708133250E0
2.519100750E0,-2.495310974E0,-8.634045410E0,7.244934082E-2,8.987689687E0
2.529072750E0,-2.247426453E0,-8.646918640E0,5.854325867E-1,8.953371373E0
2.539045750E0,-1.696871338E0,-8.851393433E0,9.436376953E-1,9.061842535E0
2.549017750E0,-1.065035248E0,-9.009464722E0,1.010548553E0,9.128305595E0
2.558990750E0,-4.676275635E-1,-9.073232117E0,9.292675781E-1,9.132675118E0
2.568962750E0,2.948867798E-2,-9.032666473E0,8.433462524E-1,9.071999014E0
2.578935750E0,3.113525391E-1,-8.686436462E0,6.334826660E-1,8.715068508E0
2.588907750E0,4.502636719E-1,-8.202941895E0,4.080514526E-1,8.225417867E0
2.598880750E0,4.055067444E-1,-7.671696625E0,1.737886047E-1,7.684371627E0
2.608852750E0,1.438508606E-1,-7.246580658E0,1.929487610E-1,7.250576082E0
2.618825750E0,-4.158352661E-1,-6.965914307E0,4.748126221E-1,6.994449808E0
2.628797750E0,-1.165326691E0,-7.235054626E0,8.334667969E-1,7.375545312E0
2.638770750E0,-1.839225311E0,-7.992928619E0,1.059347076E0,8.269937962E0
2.648742750E0,-2.345771942E0,-8.590336304E0,8.893006897E-1,8.949155241E0
2.658715750E0,-2.580483856E0,-9.017398224E0,1.857637024E-1,9.381197995E0
2.668687750E0,-2.471211090E0,-9.474397888E0,-9.711804199E-1,9.839425339E0
2.678660750E0,-2.064656525E0,-1.020472916E1,-2.298320618E0,1.066215651E1
2.688632750E0,-1.441801758E0,-1.108894043E1,-3.591032410E0,1.174473950E1
2.698604750E0,-5.634283447E-1,-1.165326691E1,-4.593497772E0,1.253859254E1
