"Time (s)","Acceleration x (m/s^2)","Acceleration y (m/s^2)","Acceleration z (m/s^2)","Absolute acceleration (m/s^2)"
3.308610000E-2,4.094717801E-1,-4.402793884E0,2.310270309E0,4.988948790E0
3.545906900E-2,4.357928336E-1,-4.225724697E0,2.427518606E0,4.892801978E0
3.783198500E-2,4.621138871E-1,-4.074677944E0,2.552244425E0,4.830165753E0
4.020495400E-2,4.645066857E-1,-3.902394533E0,2.765205622E0,4.805289969E0
4.257792300E-2,4.453641176E-1,-3.761218071E0,2.925524712E0,4.785792036E0
4.495089200E-2,3.257229924E-1,-3.703790426E0,3.066701412E0,4.819628258E0
4.732386000E-2,1.124626622E-1,-3.658326626E0,3.256033421E0,4.898750370E0
4.969682900E-2,-1.028913707E-1,-3.663112402E0,3.466601849E0,5.044433316E0
5.206979800E-2,-4.118646085E-1,-3.773182154E0,3.653541088E0,5.268291801E0
5.444271500E-2,-7.348956466E-1,-3.892823458E0,3.854538202E0,5.527351159E0
5.681568300E-2,-1.077368379E0,-4.031607151E0,4.014857292E0,5.790825323E0
5.918865200E-2,-1.388435364E0,-4.194318771E0,4.134498596E0,6.050962019E0
6.156162100E-2,-1.666301847E0,-4.340580463E0,4.170390606E0,6.245747226E0
6.393459000E-2,-1.893620014E0,-4.488935471E0,4.144069672E0,6.396065342E0
6.630755800E-2,-1.850549221E0,-4.405186653E0,4.029214382E0,6.250181630E0
6.868052700E-2,-1.769193292E0,-4.146462440E0,3.579064369E0,5.756118261E0
7.105344400E-2,-2.090130568E0,-4.350151539E0,3.095714331E0,5.733751949E0
7.342641300E-2,-2.480160713E0,-4.599005222E0,2.698206663E0,5.880677291E0
7.579938100E-2,-2.906382322E0,-4.824229717E0,2.329412937E0,6.094785903E0
7.817235000E-2,-3.425923824E0,-5.068297386E0,1.867298961E0,6.396201830E0
8.054531900E-2,-4.163212299E0,-5.487340450E0,1.244866014E0,6.999495215E0
8.291828800E-2,-4.891228676E0,-6.097809315E0,5.027918816E-1,7.833274927E0
8.529125600E-2,-5.161617756E0,-6.085845470E0,-2.081755698E-1,7.982678123E0
8.766417300E-2,-5.415555954E0,-6.169594288E0,-1.244866014E0,8.303121784E0
9.003714200E-2,-5.755336761E0,-6.420840263E0,-2.178664923E0,8.893687186E0
9.241011000E-2,-6.181558132E0,-6.916453838E0,-2.753241539E0,9.676225174E0
9.478307900E-2,-6.552744865E0,-7.493422985E0,-3.193820000E0,1.045420200E1
9.715604800E-2,-6.803991318E0,-7.936394691E0,-3.586242914E0,1.105177799E1
9.952901700E-2,-6.897311211E0,-8.281260490E0,-4.010071754E0,1.149925444E1
1.019019330E-1,-6.736992359E0,-8.343473434E0,-4.697110653E0,1.170741062E1
1.042749020E-1,-6.454638958E0,-8.271688461E0,-5.959025860E0,1.206620003E1
1.066478710E-1,-6.432804585E0,-8.491828918E0,-6.808776855E0,1.264324228E1
1.090208400E-1,-6.622136593E0,-8.649754524E0,-7.562815189E0,1.326149011E1
1.113938080E-1,-6.921239376E0,-8.956335068E0,-8.195118904E0,1.397424296E1
1.137667770E-1,-6.839883327E0,-8.630612373E0,-9.727123260E0,1.469314128E1
1.161397460E-1,-6.684350014E0,-8.604290962E0,-1.056042385E1,1.517355957E1
1.185126630E-1,-6.593422890E0,-8.762516975E0,-1.046231747E1,1.515635233E1
1.208856310E-1,-6.033203125E0,-8.980263710E0,-1.001695347E1,1.474394903E1
1.232586000E-1,-5.461019516E0,-8.855836868E0,-9.384949684E0,1.401163307E1
1.256315690E-1,-4.740181446E0,-8.312366486E0,-8.918049812E0,1.308038108E1
1.280045380E-1,-4.096213341E0,-7.962715626E0,-8.606683731E0,1.242009697E1
1.303775060E-1,-3.497708559E0,-7.790432453E0,-8.001000404E0,1.170217118E1
1.327504750E-1,-2.604886532E0,-7.642077446E0,-6.665207386E0,1.046956403E1
1.351233920E-1,-1.517946839E0,-7.687541008E0,-4.601397991E0,9.087095951E0
1.374963600E-1,-2.392822653E-1,-8.154440880E0,-2.097309113E0,8.423233796E0
1.398693290E-1,2.829811811E0,-1.104168034E1,4.166502357E-1,1.140614470E1
1.422422980E-1,7.368996620E0,-1.755584145E1,2.681456804E0,1.922758151E1
1.446152670E-1,1.195843029E1,-2.458745003E1,3.110071182E0,2.751761793E1
1.469882350E-1,1.644257927E1,-3.211198044E1,2.159522533E0,3.614140615E1
1.493611520E-1,1.881296921E1,-3.984976959E1,1.158724308E0,4.408258827E1
1.517341210E-1,1.842503357E1,-4.740301132E1,-1.101296663E0,5.086983584E1
1.541070900E-1,1.245404339E1,-5.223202896E1,-4.833800793E0,5.391339051E1
1.564800580E-1,3.413959742E0,-5.455665588E1,-8.319544792E0,5.529284445E1
1.588530270E-1,-1.746760458E-1,-5.834180069E1,-1.003370380E1,5.919857626E1
1.612259960E-1,-2.628814697E0,-5.941677856E1,-1.122114182E1,6.052419570E1
1.635989650E-1,-5.190331459E0,-5.696772385E1,-1.101535892E1,5.825460697E1
1.659718810E-1,-6.969096184E0,-5.240670395E1,-9.554840088E0,5.372453713E1
1.683448500E-1,-7.814360619E0,-4.690291214E1,-7.756932735E0,4.817797634E1
1.707178190E-1,-7.601399422E0,-4.102524185E1,-6.478567123E0,4.222349552E1
1.730907880E-1,-6.607779503E0,-3.513830185E1,-5.171188831E0,3.612622594E1
1.754637560E-1,-5.417948723E0,-2.967488861E1,-4.127319813E0,3.044647683E1
1.778367250E-1,-4.156033993E0,-2.485544586E1,-3.425923824E0,2.543231727E1
1.802096940E-1,-2.949453115E0,-2.059412766E1,-2.927917719E0,2.100928532E1
1.825826100E-1,-1.924726725E0,-1.699083519E1,-2.087737799E0,1.722648259E1
1.849555790E-1,-1.187438250E0,-1.392891979E1,-1.134796143E0,1.402542614E1
1.873285480E-1,-5.410770178E-1,-1.132642555E1,-5.264209956E-2,1.133946433E1
1.897015170E-1,5.264209956E-2,-9.109476089E0,1.003190875E0,9.164699545E0
1.920744850E-1,5.745765567E-1,-7.280461788E0,1.405484200E0,7.437112874E0
1.944474540E-1,9.529415965E-1,-5.769693375E0,1.754836321E0,6.105481950E0
1.968204230E-1,1.216152072E0,-4.500899315E0,2.394019127E0,5.241035020E0
1.991933920E-1,1.354935765E0,-3.550350666E0,3.021237612E0,4.854762351E0
2.015663080E-1,1.520339727E0,-2.875275612E0,3.710968733E0,4.934564993E0
2.039392770E-1,1.673480392E0,-2.453839540E0,4.508078098E0,5.398576965E0
2.063122460E-1,1.745265007E0,-2.228914261E0,5.137689114E0,5.865991660E0
2.086852150E-1,1.628016710E0,-2.264806747E0,5.580660820E0,6.238875155E0
2.110581830E-1,1.292722464E0,-2.557030201E0,5.911169052E0,6.568976661E0
2.134311520E-1,7.540382147E-1,-2.975774050E0,6.169594288E0,6.891131874E0
2.158040690E-1,1.579262912E-1,-3.445066452E0,6.399304867E0,7.269424073E0
2.181770380E-1,-3.879363835E-1,-3.880859137E0,6.571887493E0,7.642072199E0
2.205500060E-1,-9.026923180E-1,-4.283152580E0,6.751348972E0,8.046176881E0
2.229229750E-1,-1.266401410E0,-4.594219685E0,6.885347366E0,8.373687085E0
2.252959440E-1,-1.551446438E0,-4.941477776E0,7.014858723E0,8.719715107E0
2.276689130E-1,-1.721336842E0,-5.240580559E0,7.220641613E0,9.086492746E0
2.300418810E-1,-1.852941990E0,-5.559125423E0,7.285247803E0,9.349444103E0
2.324147980E-1,-1.905584097E0,-5.743372440E0,7.199106216E0,9.404504668E0
2.347877670E-1,-1.989632010E0,-5.831906796E0,7.447959423E0,9.666533607E0
2.371607350E-1,-2.020738840E0,-5.908776283E0,7.246962547E0,9.566372812E0
2.395337040E-1,-2.049452543E0,-5.923133373E0,7.105785847E0,9.475017529E0
2.419066730E-1,-2.068595171E0,-5.935097694E0,7.041179657E0,9.438362230E0
2.442796420E-1,-2.025524378E0,-5.961418629E0,6.531209469E0,9.071822209E0
2.466526100E-1,-1.994417667E0,-5.987739563E0,6.291627884E0,8.911526712E0
2.490255270E-1,-1.946262121E0,-6.042774677E0,5.863013744E0,8.641642912E0
2.513984960E-1,-1.874477386E0,-6.114559174E0,5.202295303E0,8.244111582E0
2.537714650E-1,-1.869691849E0,-6.210271835E0,4.884049892E0,8.118938799E0
2.561444330E-1,-1.852941990E0,-6.337091446E0,4.170390606E0,7.809243230E0
2.585174020E-1,-1.876870275E0,-6.466603279E0,3.598206997E0,7.634572260E0
2.608903710E-1,-1.905584097E0,-6.564708710E0,3.205784082E0,7.550079654E0
2.632633400E-1,-1.797907114E0,-6.638886452E0,2.394019127E0,7.282761213E0
2.656362560E-1,-1.766800404E0,-6.818347931E0,1.884048700E0,7.291165317E0
2.680092250E-1,-1.809871197E0,-6.976274490E0,1.323829174E0,7.327793883E0
2.703821940E-1,-1.972882271E0,-7.077072144E0,5.434698462E-1,7.366992199E0
2.727551630E-1,-2.303091764E0,-7.134500027E0,1.651047617E-1,7.498838703E0
2.751281310E-1,-2.588136673E0,-7.215855598E0,-5.602195859E-1,7.686408097E0
2.775011000E-1,-2.868097067E0,-7.230212688E0,-1.185045362E0,7.868054957E0
2.798740690E-1,-3.157927752E0,-7.237390995E0,-1.580160260E0,8.052902740E0
2.822469850E-1,-3.346960783E0,-7.294818878E0,-2.487339020E0,8.402582005E0
2.846199540E-1,-3.445066452E0,-7.318747044E0,-3.049951553E0,8.644926005E0
2.869929230E-1,-3.373281717E0,-7.246962547E0,-3.703790426E0,8.809969309E0
2.893658920E-1,-3.236890793E0,-7.151249409E0,-4.608576298E0,9.102571373E0
2.917388600E-1,-3.160320520E0,-6.988238335E0,-5.034798145E0,9.174545938E0
2.941118290E-1,-3.052344322E0,-6.823133945E0,-5.796014786E0,9.458633627E0
2.964847980E-1,-2.870489836E0,-6.588637352E0,-6.473781586E0,9.672626431E0
2.988577150E-1,-2.691028118E0,-6.274878502E0,-6.782455921E0,9.623795554E0
3.012306830E-1,-2.501696110E0,-5.947061539E0,-7.476673603E0,9.875559353E0
3.036036520E-1,-2.353341103E0,-5.516054630E0,-7.709076405E0,9.767032919E0
3.059766210E-1,-2.128415823E0,-5.065904617E0,-7.845467091E0,9.578355672E0
3.083495900E-1,-1.778764486E0,-4.677968502E0,-8.134998322E0,9.551208829E0
3.107225580E-1,-1.429412484E0,-4.287938118E0,-7.740182877E0,8.963261924E0
3.130954750E-1,-1.019940615E0,-3.969393730E0,-7.500601768E0,8.547244722E0
3.154684440E-1,-4.740779996E-1,-3.701397419E0,-7.151249409E0,8.066316440E0
3.178414130E-1,1.627119333E-1,-3.418745279E0,-6.349055767E0,7.212822166E0
3.202143810E-1,7.540382147E-1,-3.260818958E0,-5.987739563E0,6.859631111E0
3.225873500E-1,1.242473125E0,-3.181855917E0,-5.269294739E0,6.279602980E0
3.249603190E-1,1.618445396E0,-3.222533941E0,-4.510470867E0,5.774810642E0
3.273332880E-1,1.793121457E0,-3.385245800E0,-4.115355968E0,5.622395258E0
3.297062040E-1,1.740479350E0,-3.612564087E0,-3.301496983E0,5.194205423E0
3.320791730E-1,1.635195136E0,-3.852145433E0,-2.884846687E0,5.082836608E0
3.344521420E-1,1.668694735E0,-4.091427803E0,-2.633600473E0,5.143945474E0
3.368251100E-1,1.797907114E0,-4.283152580E0,-2.008774519E0,5.060932828E0
3.391980790E-1,1.984846354E0,-4.498506546E0,-1.989632010E0,5.304225837E0
3.415710480E-1,2.140379906E0,-4.656432629E0,-1.805085540E0,5.433408210E0
3.439440170E-1,2.300698996E0,-4.749752998E0,-1.577767372E0,5.508422578E0
3.463169330E-1,2.437089920E0,-4.802694321E0,-1.836192250E0,5.690068716E0
3.486899020E-1,2.590529680E0,-4.778766155E0,-1.606481314E0,5.668177150E0
3.510628710E-1,2.741277456E0,-4.749752998E0,-1.628016710E0,5.720593854E0
3.534358400E-1,2.896811008E0,-4.725824833E0,-1.793121457E0,5.825823455E0
3.558088080E-1,3.047558784E0,-4.639683247E0,-1.517946839E0,5.754862099E0
3.581817770E-1,3.244069338E0,-4.620540619E0,-1.742872238E0,5.908551863E0
3.605547460E-1,3.349353552E0,-4.536791801E0,-1.716551185E0,5.894675312E0
3.629276630E-1,3.351746321E0,-4.364508629E0,-1.527518153E0,5.711081393E0
3.653006310E-1,3.394817114E0,-4.252045631E0,-1.778764486E0,5.724393277E0
3.676736000E-1,3.327818155E0,-4.105784416E0,-1.522732496E0,5.500050327E0
3.700465690E-1,3.291925669E0,-3.902394533E0,-1.513161182E0,5.324952062E0
3.724195380E-1,3.227319479E0,-3.742075443E0,-1.642373681E0,5.207313218E0
3.747925060E-1,3.241676569E0,-3.785146236E0,-1.216152072E0,5.129797742E0
3.771654230E-1,3.277568817E0,-3.902394533E0,-1.522732496E0,5.318820800E0
3.795383920E-1,3.069094181E0,-3.792324781E0,-1.738086581E0,5.178997133E0
3.819113600E-1,2.923131943E0,-3.773182154E0,-1.501197100E0,5.003518427E0
3.842843290E-1,2.880061150E0,-3.988536358E0,-1.955833435E0,5.294191055E0
3.866572980E-1,2.750848770E0,-4.134498596E0,-2.025524378E0,5.363207679E0
3.890302670E-1,2.633600473E0,-4.280759811E0,-2.269592285E0,5.514689942E0
3.914032350E-1,2.329412937E0,-4.347758770E0,-2.726920605E0,5.636068394E0
3.937761520E-1,1.996810555E0,-4.218546391E0,-2.564208508E0,5.325274764E0
3.961491210E-1,1.601695657E0,-4.005286217E0,-2.863311291E0,5.177479908E0
3.985220900E-1,1.103689432E0,-3.636492252E0,-2.911167860E0,4.787181276E0
4.008950580E-1,5.985047817E-1,-3.114856958E0,-2.588136673E0,4.093774943E0
4.032680270E-1,1.411765367E-1,-2.508874655E0,-2.552244425E0,3.581666435E0
4.056409960E-1,-3.041875660E-1,-1.936690807E0,-1.905584097E0,2.733962712E0
4.080139130E-1,-7.085745931E-1,-1.604088426E0,-1.371685624E0,2.226364544E0
4.103868810E-1,-1.639980793E0,-1.936690807E0,-1.228116274E0,2.819322235E0
4.127598500E-1,-1.941476464E0,-2.853740215E0,-1.130010486E0,3.631816044E0
4.151328190E-1,-2.039881229E0,-3.969393730E0,-1.335793257E0,4.658491777E0
4.175057880E-1,-2.255235434E0,-5.008476734E0,-1.345364571E0,5.655168599E0
4.198787560E-1,-2.173879385E0,-6.088238239E0,-1.137188911E0,6.563961842E0
4.222517250E-1,-1.592124343E0,-7.213462830E0,-1.829013824E0,7.610137810E0
4.246246420E-1,-9.433703423E-1,-8.199904442E0,-2.405983210E0,8.597507526E0
4.269976100E-1,-4.310071766E-1,-9.111868858E0,-3.277568817E0,9.693006687E0
4.293705790E-1,-2.994019389E-1,-9.949954987E0,-4.445864677E0,1.090215385E1
4.317435480E-1,-5.817549825E-1,-1.067049313E1,-4.893621445E0,1.175352684E1
4.341165170E-1,-9.433703423E-1,-1.139342499E1,-5.740979671E0,1.279292493E1
4.364894850E-1,-1.381256819E0,-1.207358456E1,-6.478567123E0,1.377138869E1
4.388624540E-1,-1.639980793E0,-1.260000610E1,-6.825526714E0,1.442350532E1
4.412353710E-1,-1.807478428E0,-1.304297733E1,-7.721040249E0,1.526436040E1
4.436083400E-1,-2.059023857E0,-1.334477234E1,-8.173583031E0,1.578385211E1
4.459813080E-1,-2.365305185E0,-1.359362507E1,-8.637790680E0,1.627859757E1
4.483542770E-1,-2.734098911E0,-1.393370533E1,-9.506983757E0,1.708818835E1
4.507272460E-1,-3.179463148E0,-1.416341591E1,-9.878170013E0,1.755817698E1
4.531002150E-1,-3.777967930E0,-1.437906933E1,-1.072313595E1,1.833074797E1
4.554731310E-1,-4.520041943E0,-1.458245945E1,-1.154925728E1,1.914325590E1
4.578461000E-1,-5.394020557E0,-1.481934929E1,-1.189382362E1,1.975276212E1
4.602190690E-1,-6.100202084E0,-1.505414486E1,-1.269123173E1,2.061327499E1
4.625920380E-1,-6.705885410E0,-1.523121357E1,-1.297837067E1,2.110442776E1
4.649650060E-1,-7.194320202E0,-1.542981815E1,-1.301665592E1,2.143060575E1
4.673379750E-1,-7.483851910E0,-1.558325768E1,-1.317458248E1,2.173512325E1
4.697108920E-1,-7.821538925E0,-1.567418480E1,-1.254975700E1,2.154885011E1
4.720838600E-1,-8.173583031E0,-1.574836254E1,-1.212862015E1,2.149236630E1
4.744568290E-1,-8.410472870E0,-1.574118423E1,-1.166172028E1,2.131939621E1
4.768297980E-1,-8.412865639E0,-1.555215073E1,-1.059870911E1,2.061500267E1
4.792027670E-1,-8.376973152E0,-1.532692623E1,-9.990633011E0,2.012215433E1
4.815757350E-1,-8.415258408E0,-1.499671650E1,-8.973084450E0,1.939676067E1
4.839487040E-1,-8.487042427E0,-1.463270855E1,-7.919644833E0,1.867797695E1
4.863216210E-1,-8.372187614E0,-1.428305721E1,-7.400103092E0,1.813451887E1
4.886945900E-1,-8.164011955E0,-1.390738392E1,-6.351448536E0,1.733226232E1
4.910675580E-1,-7.934001446E0,-1.356730461E1,-5.800800323E0,1.675319127E1
4.934405270E-1,-7.689933777E0,-1.324188042E1,-5.408377171E0,1.623985905E1
4.958134960E-1,-7.301997185E0,-1.285633659E1,-4.563112736E0,1.547341434E1
4.981864650E-1,-6.741777897E0,-1.257129192E1,-4.290330887E0,1.489617028E1
5.005594330E-1,-6.277271271E0,-1.223151112E1,-3.742075443E0,1.424840789E1
5.029323500E-1,-5.894419670E0,-1.190100288E1,-3.179463148E0,1.365602573E1
5.053053190E-1,-5.585446358E0,-1.164257812E1,-3.258426189E0,1.331781430E1
5.076782880E-1,-5.384449005E0,-1.135513973E1,-2.860918522E0,1.288861297E1
5.100512560E-1,-5.175974369E0,-1.115892887E1,-2.736491680E0,1.260161858E1
5.124242250E-1,-4.898406982E0,-1.102253723E1,-2.683849812E0,1.235693197E1
5.147971940E-1,-4.632504463E0,-1.088824081E1,-2.068595171E0,1.201220095E1
5.171701100E-1,-4.381258488E0,-1.081645584E1,-2.032702923E0,1.184580196E1
5.195430790E-1,-4.292723656E0,-1.074945641E1,-1.797907114E0,1.171369965E1
5.219160480E-1,-4.285545349E0,-1.069920731E1,-1.393221021E0,1.160947892E1
5.242890170E-1,-4.285545349E0,-1.072552872E1,-1.539482236E0,1.165216163E1
5.266619850E-1,-4.398007870E0,-1.074467087E1,-1.060618639E0,1.165827334E1
5.290349540E-1,-4.591826439E0,-1.083799076E1,-7.947162390E-1,1.179739326E1
5.314079230E-1,-4.838586330E0,-1.097228813E1,-7.779664397E-1,1.201699864E1
5.337808400E-1,-4.998905659E0,-1.097707367E1,-2.153540403E-1,1.206364711E1
5.361538080E-1,-5.015655518E0,-1.097468090E1,-2.464607358E-1,1.206901670E1
5.385267770E-1,-5.056333542E0,-1.089541912E1,-1.268195957E-1,1.201219172E1
5.408997460E-1,-5.149653435E0,-1.076142120E1,2.321037948E-1,1.193235052E1
5.432727150E-1,-5.221437931E0,-1.069920731E1,2.392822644E-3,1.190531212E1
5.456456830E-1,-5.331807137E0,-1.055085278E1,3.017947674E-1,1.182538548E1
5.480186000E-1,-5.365306377E0,-1.040489006E1,4.046861231E-1,1.171375348E1
5.503915690E-1,-5.278865814E0,-1.027298546E1,1.004985496E-1,1.155035733E1
5.527645380E-1,-5.125725269E0,-1.006002426E1,3.329014480E-1,1.129548454E1
5.551375060E-1,-4.924727917E0,-9.878170013E0,3.828516230E-2,1.103778300E1
5.575104750E-1,-4.768895626E0,-9.741479874E0,-5.264209956E-2,1.084626972E1
5.598834440E-1,-4.666004181E0,-9.636196136E0,1.507478207E-1,1.070750185E1
5.622563600E-1,-4.534399033E0,-9.619445801E0,-2.560320199E-1,1.063767195E1
5.646293290E-1,-4.438685894E0,-9.600303650E0,-1.555334777E-1,1.057789929E1
5.670022980E-1,-4.350151539E0,-9.667302132E0,-1.962114573E-1,1.060278491E1
5.693752670E-1,-4.244867325E0,-9.803693771E0,-6.391827464E-1,1.070232987E1
5.717482350E-1,-4.100998878E0,-9.973882675E0,-5.458626747E-1,1.079789301E1
5.741212040E-1,-3.888037682E0,-1.029452133E1,-9.194421172E-1,1.104261655E1
5.764941210E-1,-3.629313707E0,-1.066570759E1,-1.101296663E0,1.131998634E1
5.788670900E-1,-3.370888948E0,-1.111107159E1,-8.186444640E-1,1.163997349E1
5.812400580E-1,-3.126821041E0,-1.161386395E1,-1.177866936E0,1.208495826E1
5.836130270E-1,-2.987738132E0,-1.206879902E1,-1.108475089E0,1.248243590E1
5.859859960E-1,-2.844168901E0,-1.250907898E1,-1.096511006E0,1.287511903E1
5.883589650E-1,-2.655135870E0,-1.296640682E1,-1.558624864E0,1.332691877E1
5.907318810E-1,-2.568994284E0,-1.334955788E1,-1.383649707E0,1.366473248E1
5.931048500E-1,-2.470589399E0,-1.374437332E1,-1.671087503E0,1.406428610E1
5.954778190E-1,-2.482553482E0,-1.410598850E1,-1.833799481E0,1.443969542E1
5.978507880E-1,-2.590529680E0,-1.442931843E1,-1.491625786E0,1.473570568E1
6.002237560E-1,-2.683849812E0,-1.480738449E1,-1.666301847E0,1.514061581E1
6.025967250E-1,-2.853740215E0,-1.510917950E1,-1.427019596E0,1.544239370E1
6.049696940E-1,-3.059522867E0,-1.547797298E1,-1.295115232E0,1.583052909E1
6.073426100E-1,-3.136392355E0,-1.585125351E1,-1.625623941E0,1.624013079E1
6.097155790E-1,-3.131606579E0,-1.614347649E1,-1.299900889E0,1.649571263E1
6.120885480E-1,-3.071486950E0,-1.650957870E1,-1.460519075E0,1.685625513E1
6.144615170E-1,-2.892025232E0,-1.686880112E1,-1.750050664E0,1.720415468E1
6.168344850E-1,-2.540280342E0,-1.724716568E1,-1.525125384E0,1.749982159E1
6.192074540E-1,-2.109273195E0,-1.768056679E1,-1.745265007E0,1.789126673E1
6.215803710E-1,-1.601695657E0,-1.794616890E1,-1.537089467E0,1.808294918E1
6.239533400E-1,-1.110867858E0,-1.810170364E1,-1.283151150E0,1.818109400E1
6.263263080E-1,-6.104688644E-1,-1.818066597E1,-1.553839207E0,1.825715486E1
6.286992770E-1,-4.546362907E-2,-1.805863190E1,-1.304686546E0,1.810575765E1
6.310722460E-1,6.415755749E-1,-1.779063606E1,-1.407876968E0,1.785778453E1
6.334452150E-1,1.299900889E0,-1.743380737E1,-1.575374603E0,1.755303925E1
6.358181310E-1,2.020738840E0,-1.691665840E1,-1.266401410E0,1.708392488E1
6.381911000E-1,2.784348249E0,-1.635883141E1,-1.570588946E0,1.666825455E1
6.405640690E-1,3.569493294E0,-1.566700649E1,-1.556231976E0,1.614367470E1
6.429370380E-1,4.364508629E0,-1.489861107E1,-1.494018674E0,1.559646239E1
6.453100060E-1,4.960620403E0,-1.413709545E1,-1.989632010E0,1.511369770E1
6.476829750E-1,5.405984402E0,-1.325145149E1,-1.931905150E0,1.444153356E1
6.500558920E-1,5.865406513E0,-1.238225937E1,-2.092523336E0,1.386008638E1
6.524288600E-1,6.277271271E0,-1.158275700E1,-2.264806747E0,1.336763793E1
6.548018290E-1,6.674778938E0,-1.079013443E1,-1.769193292E0,1.281053160E1
6.571747980E-1,7.182356358E0,-1.015095139E1,-1.867298961E0,1.257437324E1
6.595477670E-1,7.483851910E0,-9.593125343E0,-1.728515267E0,1.228917647E1
6.619207350E-1,7.685148239E0,-9.109476089E0,-1.520339727E0,1.201480299E1
6.642937040E-1,7.914859295E0,-8.743373871E0,-1.862513304E0,1.193987186E1
6.666666210E-1,8.171190262E0,-8.374580383E0,-1.587338686E0,1.180769203E1
6.690395900E-1,8.305188179E0,-8.108677864E0,-1.501197100E0,1.170386262E1
